#                                                           
# Y88b    /   e           e    e      888~~\    ,88~-_      
#  Y88b  /   d8b         d8b  d8b     888   |  d888   \     
#   Y88b/   /Y88b       d888bdY88b    888 _/  88888    |    
#    Y8Y   /  Y88b     / Y88Y Y888b   888  \  88888    |    
#     Y   /____Y88b   /   YY   Y888b  888   |  Y888   /     
#    /   /      Y88b /          Y888b 888__/    `88_-~      
#                                                           
#             GPL Version 3.1.2 Revision 297                
#               http://www.yambo-code.org                   
#
# Polarization (-<<X>>) [area] @ IQ 1 :0.1000E-4  0.000     0.000
#
# - The gauge is transverse + [r,Vnl] -
#
# BSK|Identifier              :5980
#    |Dimension               :936
#    |Bands                   :20 - 50
#    |Exchange           [res]: yes
#    |Correlation        [res]: yes
#    |Kernel`s coupling       : no
#    |Exchange           [cpl]: no
#    |Correlation        [cpl]: no
#    |ALDA kernel in R-space  : no
#    |RL vectors    [exchange]:107
#    |RL vectors [correlation]:107
#    |E/h energy range    [ev]:-1.000000 - -1.000000
#    |Coupling range     [o/o]: 100.0000 -  100.0000
#  W |Interaction is diagonal : yes
#    |Matrix size             :107
#    |Bands                   :1 - 100
#    |e/h energy range    [ev]:-1.000000 - -1.000000
#    |Poles              [o/o]: 100.0000
#    |Rl vectors in the sum   :997
#    |[r,Vnl] included        : yes
#    |Longitudinal Gauge      : no
#    |Field direction         :0.1000E-4  0.000000  0.000000
#    |Columbian Cutoff        :none
#    |xc-Kernel               :none
# RIM|RL components      [col]:0
#    |Random points      [col]:0
#
# Haydock|Accuracy (requested) [o/o]: -0.02000
#        |Accuracy (reached)   [o/o]:  0.01973
#        |Iteration                 :32
#
#  E/ev[1]    alpha/Im   alpha/Re   alphao/Im  alphao/Re  alpha`/Im  alpha`/Re
#
   0.00000    0.69572   30.48874    0.26391   18.91918    0.69572   30.48874
   0.03344    0.70665   30.72298    0.26641   19.00781    0.70665   30.72298
   0.06689    0.71784   30.96092    0.26895   19.09730    0.71784   30.96092
   0.10033    0.72930   31.20263    0.27152   19.18763    0.72930   31.20263
   0.13378    0.74105   31.44822    0.27414   19.27885    0.74105   31.44822
   0.16722    0.75309   31.69778    0.27679   19.37094    0.75309   31.69778
   0.20067    0.76542   31.95139    0.27948   19.46392    0.76542   31.95139
   0.23411    0.77807   32.20918    0.28221   19.55780    0.77807   32.20918
   0.26756    0.79103   32.47123    0.28498   19.65261    0.79103   32.47123
   0.30100    0.80433   32.73767    0.28779   19.74835    0.80433   32.73767
   0.33445    0.81797   33.00860    0.29065   19.84503    0.81797   33.00860
   0.36789    0.83196   33.28414    0.29354   19.94267    0.83196   33.28414
   0.40134    0.84632   33.56440    0.29648   20.04129    0.84632   33.56440
   0.43478    0.86107   33.84953    0.29947   20.14091    0.86107   33.84953
   0.46823    0.87620   34.13963    0.30250   20.24152    0.87620   34.13963
   0.50167    0.89175   34.43484    0.30558   20.34315    0.89175   34.43484
   0.53512    0.90772   34.73531    0.30871   20.44584    0.90772   34.73531
   0.56856    0.92412   35.04118    0.31188   20.54956    0.92412   35.04118
   0.60201    0.94099   35.35260    0.31511   20.65436    0.94099   35.35260
   0.63545    0.95832   35.66971    0.31838   20.76024    0.95832   35.66971
   0.66890    0.97615   35.99269    0.32171   20.86723    0.97615   35.99269
   0.70234    0.99449   36.32169    0.32509   20.97534    0.99449   36.32169
   0.73579    1.01335   36.65690    0.32853   21.08458    1.01335   36.65690
   0.76923    1.03277   36.99849    0.33202   21.19497    1.03277   36.99849
   0.80268    1.05276   37.34664    0.33556   21.30656    1.05276   37.34664
   0.83612    1.07335   37.70155    0.33917   21.41932    1.07335   37.70155
   0.86957    1.09455   38.06343    0.34283   21.53331    1.09455   38.06343
   0.90301    1.11640   38.43248    0.34655   21.64853    1.11640   38.43248
   0.93645    1.13892   38.80892    0.35034   21.76500    1.13892   38.80892
   0.96990    1.16214   39.19298    0.35419   21.88275    1.16214   39.19298
   1.00334    1.18609   39.58490    0.35810   22.00180    1.18609   39.58490
   1.03679    1.21080   39.98492    0.36208   22.12216    1.21080   39.98492
   1.07023    1.23631   40.39331    0.36613   22.24387    1.23631   40.39331
   1.10368    1.26264   40.81032    0.37024   22.36693    1.26264   40.81032
   1.13712    1.28984   41.23626    0.37443   22.49138    1.28984   41.23626
   1.17057    1.31794   41.67139    0.37869   22.61726    1.31794   41.67139
   1.20401    1.34699   42.11604    0.38302   22.74455    1.34699   42.11604
   1.23746    1.37702   42.57052    0.38743   22.87330    1.37702   42.57052
   1.27090    1.40809   43.03517    0.39192   23.00355    1.40809   43.03517
   1.30435    1.44024   43.51035    0.39648   23.13531    1.44024   43.51035
   1.33779    1.47353   43.99641    0.40113   23.26860    1.47353   43.99641
   1.37124    1.50801   44.49374    0.40586   23.40346    1.50801   44.49374
   1.40468    1.54373   45.00275    0.41067   23.53991    1.54373   45.00275
   1.43813    1.58076   45.52386    0.41558   23.67798    1.58076   45.52386
   1.47157    1.61916   46.05753    0.42057   23.81771    1.61916   46.05753
   1.50502    1.65901   46.60420    0.42565   23.95914    1.65901   46.60420
   1.53846    1.70038   47.16437    0.43083   24.10226    1.70038   47.16437
   1.57191    1.74334   47.73856    0.43611   24.24714    1.74334   47.73856
   1.60535    1.78799   48.32732    0.44148   24.39379    1.78799   48.32732
   1.63880    1.83440   48.93119    0.44695   24.54226    1.83440   48.93119
   1.67224    1.88269   49.55081    0.45253   24.69258    1.88269   49.55081
   1.70569    1.93294   50.18680    0.45822   24.84476    1.93294   50.18680
   1.73913    1.98528   50.83983    0.46401   24.99887    1.98528   50.83983
   1.77258    2.03982   51.51059    0.46992   25.15492    2.03982   51.51059
   1.80602    2.09668   52.19986    0.47594   25.31298    2.09668   52.19986
   1.83946    2.15600   52.90840    0.48209   25.47306    2.15600   52.90840
   1.87291    2.21794   53.63708    0.48835   25.63522    2.21794   53.63708
   1.90635    2.28263   54.38676    0.49474   25.79947    2.28263   54.38676
   1.93980    2.35027   55.15838    0.50125   25.96589    2.35027   55.15838
   1.97324    2.42102   55.95295    0.50790   26.13453    2.42102   55.95295
   2.00669    2.49509   56.77153    0.51468   26.30538    2.49509   56.77153
   2.04013    2.57269   57.61525    0.52161   26.47852    2.57269   57.61525
   2.07358    2.65404   58.48529    0.52867   26.65401    2.65404   58.48529
   2.10702    2.73941   59.38294    0.53588   26.83187    2.73941   59.38294
   2.14047    2.82906   60.30959    0.54325   27.01217    2.82906   60.30959
   2.17391    2.92329   61.26664    0.55077   27.19495    2.92329   61.26664
   2.20736    3.02242   62.25569    0.55844   27.38029    3.02242   62.25569
   2.24080    3.12680   63.27839    0.56629   27.56819    3.12680   63.27839
   2.27425    3.23682   64.33654    0.57430   27.75874    3.23682   64.33654
   2.30769    3.35290   65.43204    0.58249   27.95201    3.35290   65.43204
   2.34114    3.47548   66.56697    0.59086   28.14802    3.47548   66.56697
   2.37458    3.60509   67.74351    0.59941   28.34688    3.60509   67.74351
   2.40803    3.74227   68.96407    0.60816   28.54861    3.74227   68.96407
   2.44147    3.88764   70.23121    0.61710   28.75329    3.88764   70.23121
   2.47492    4.04187   71.54771    0.62624   28.96100    4.04187   71.54771
   2.50836    4.20571   72.91661    0.63559   29.17179    4.20571   72.91661
   2.54181    4.37999   74.34113    0.64516   29.38575    4.37999   74.34113
   2.57525    4.56563   75.82485    0.65495   29.60291    4.56563   75.82485
   2.60870    4.76365   77.37159    0.66497   29.82340    4.76365   77.37159
   2.64214    4.97520   78.98558    0.67523   30.04727    4.97520   78.98558
   2.67559    5.20157   80.67139    0.68573   30.27460    5.20157   80.67139
   2.70903    5.44419   82.43404    0.69648   30.50548    5.44419   82.43404
   2.74247    5.70470   84.27906    0.70750   30.73998    5.70470   84.27906
   2.77592    5.98491   86.21246    0.71878   30.97821    5.98491   86.21246
   2.80936    6.28692   88.24094    0.73034   31.22026    6.28692   88.24094
   2.84281    6.61308   90.37186    0.74220   31.46619    6.61308   90.37186
   2.87625    6.96608   92.61333    0.75434   31.71612    6.96608   92.61333
   2.90970    7.34902   94.97446    0.76680   31.97018    7.34902   94.97446
   2.94314    7.76544   97.46529    0.77958   32.22845    7.76544   97.46529
    2.9766     8.2195   100.0971     0.7927    32.4910     8.2195   100.0971
    3.0100     8.7158   102.8825     0.8061    32.7580     8.7158   102.8825
    3.0435     9.2600   105.8356     0.8199    33.0296     9.2600   105.8356
    3.0769     9.8586   108.9725     0.8341    33.3058     9.8586   108.9725
    3.1104    10.5193   112.3113     0.8487    33.5868    10.5193   112.3113
    3.1438    11.2510   115.8726     0.8636    33.8727    11.2510   115.8726
    3.1773    12.0646   119.6798     0.8790    34.1637    12.0646   119.6798
    3.2107    12.9732   123.7601     0.8947    34.4598    12.9732   123.7601
    3.2441    13.9923   128.1445     0.9110    34.7613    13.9923   128.1445
    3.2776    15.1411   132.8690     0.9276    35.0683    15.1411   132.8690
    3.3110    16.4433   137.9757     0.9448    35.3809    16.4433   137.9757
    3.3445    17.9279   143.5135     0.9625    35.6993    17.9279   143.5135
    3.3779    19.6317   149.5405     0.9806    36.0238    19.6317   149.5405
    3.4114    21.6011   156.1253     0.9993    36.3543    21.6011   156.1253
    3.4448    23.8961   163.3496     1.0186    36.6912    23.8961   163.3496
    3.4783    26.5945   171.3116     1.0384    37.0345    26.5945   171.3116
    3.5117    29.7993   180.1297     1.0589    37.3846    29.7993   180.1297
    3.5452    33.6493   189.9473     1.0800    37.7416    33.6493   189.9473
    3.5786    38.3348   200.9388     1.1017    38.1057    38.3348   200.9388
    3.6120    44.1226   213.3152     1.1241    38.4772    44.1226   213.3152
    3.6455    51.3949   227.3294     1.1473    38.8563    51.3949   227.3294
    3.6789    60.7138   243.2740     1.1712    39.2433    60.7138   243.2740
    3.7124    72.9272   261.4613     1.1959    39.6382    72.9272   261.4613
    3.7458    89.3448   282.1450     1.2214    40.0416    89.3448   282.1450
    3.7793   112.0193   305.2918     1.2477    40.4536   112.0193   305.2918
    3.8127   144.1211   329.9546     1.2750    40.8745   144.1211   329.9546
    3.8462   190.0714   352.6932     1.3032    41.3046   190.0714   352.6932
    3.8796   253.6977   364.3946     1.3324    41.7443   253.6977   364.3946
    3.9130   329.6047   348.3211     1.3626    42.1939   329.6047   348.3211
    3.9465   389.9210   295.5035     1.3939    42.6537   389.9210   295.5035
    3.9799   407.2766   237.0256     1.4263    43.1241   407.2766   237.0256
    4.0134   405.6364   213.5275     1.4600    43.6055   405.6364   213.5275
    4.0468   429.7027   219.1872     1.4949    44.0983   429.7027   219.1872
    4.0803   500.8008   217.0269     1.5312    44.6030   500.8008   217.0268
    4.1137   608.0026   157.4520     1.5688    45.1199   608.0024   157.4524
    4.1472   686.6728     5.2645     1.6079    45.6496   686.6735     5.2645
    4.1806   652.1057  -185.3774     1.6486    46.1925   652.1055  -185.3785
    4.2140   524.2191  -307.5834     1.6910    46.7492   524.2180  -307.5829
    4.2475   389.0414  -341.6158     1.7351    47.3203   389.0418  -341.6148
    4.2809   286.4722  -327.0477     1.7810    47.9063   286.4733  -327.0478
    4.3144   216.6102  -295.0547     1.8289    48.5079   216.6107  -295.0556
    4.3478   170.4011  -259.6279     1.8789    49.1257   170.4008  -259.6289
    4.3813   140.3042  -225.7184     1.9311    49.7605   140.3029  -225.7191
    4.4147   121.5997  -194.7433     1.9857    50.4130   121.5976  -194.7426
    4.4482   111.7682  -167.1335     2.0427    51.0840   111.7667  -167.1298
    4.4816   109.6798  -143.7072     2.1025    51.7743   109.6844  -143.7009
    4.5150   114.2197  -126.7008     2.1650    52.4850   114.2344  -126.7043
    4.5485   121.4149  -119.1253     2.2307    53.2168   121.4156  -119.1520
    4.5819   123.8928  -119.0639     2.2996    53.9708   123.8530  -119.0726
    4.6154   120.5282  -117.8050     2.3720    54.7483   120.5049  -117.7556
    4.6488   118.9895  -112.6313     2.4481    55.5503   119.0419  -112.5849
    4.6823   122.9418  -110.0173     2.5284    56.3782   123.0174  -110.0653
    4.7157   126.6021  -115.3018     2.6130    57.2332   126.5661  -115.4044
    4.7492   123.0307  -123.6567     2.7023    58.1171   122.9137  -123.6416
    4.7826   115.7212  -128.5408     2.7967    59.0311   115.7077  -128.4266
    4.8161   108.7996  -132.8769     2.8967    59.9772   108.8934  -132.8368
    4.8495    98.2069  -138.4813     3.0027    60.9572    98.2619  -138.5393
    4.8829    82.6034  -139.6660     3.1153    61.9732    82.5865  -139.7196
    4.9164    67.4113  -133.9239     3.2351    63.0274    67.3755  -133.9389
    4.9498    56.1288  -124.0560     3.3628    64.1222    56.1014  -124.0474
    4.9833    48.9045  -112.7778     3.4992    65.2602    48.8897  -112.7594
    5.0167    45.0096  -101.3471     3.6452    66.4445    45.0062  -101.3256
   5.05017   43.96767  -90.21436    3.80179   67.67824   43.97507  -90.19290
   5.08361   45.78234  -79.64718    3.97025   68.96490   45.80196  -79.62918
   5.11706   50.92231  -70.25220    4.15196   70.30871   50.95649  -70.24510
   5.15050   59.98861  -63.70053    4.34853   71.71380   60.03454  -63.72081
   5.18395   72.15869  -63.45628    4.56188   73.18526   72.18877  -63.52576
   5.21739   81.87123  -72.69711    4.79431   74.72870   81.82091  -72.79480
   5.25084   80.82439  -86.66810    5.04855   76.35030   80.68460  -86.68814
   5.28428   70.29688  -94.54617    5.32789   78.05731   70.17941  -94.43356
   5.31773   59.14362  -93.61241    5.63640   79.85783   59.14543  -93.42812
   5.35117   52.17457  -87.90399    5.97904   81.76134   52.32914  -87.74620
   5.38462   49.93662  -81.41638    6.36210   83.77864   50.22187  -81.41314
   5.41806   51.13434  -77.12605    6.79351   85.92241   51.38467  -77.41474
   5.45150   52.51763  -76.58144    7.28352   88.20760   52.39652  -77.05267
   5.48495   50.62878  -77.36932    7.84562   90.65154   50.11006  -77.54829
   5.51839   46.64009  -75.33310    8.49783   93.27520   46.16325  -75.02618
   5.55184   44.22982  -70.04373    9.26477   96.10334   44.11123  -69.46494
   5.58528   45.40902  -63.49382   10.18093   99.16539   45.74697  -62.92229
    5.6187    50.8841   -58.0456    11.2959   102.4959    51.6701   -57.8091
    5.6522    60.3261   -56.9354    12.6825   106.1341    61.2661   -57.4846
    5.6856    70.0331   -64.0073    14.4517   110.1206    70.1808   -65.4401
    5.7191    71.9198   -78.0371    16.7754   114.4860    70.5414   -79.0863
    5.7525    63.2054   -89.4022    19.9253   119.2186    61.4622   -88.7602
    5.7860    51.0842   -92.3847    24.3243   124.1757    50.5343   -90.5505
    5.8194    41.5124   -89.5225    30.5681   128.8600    42.6464   -87.8344
    5.8528    35.6770   -84.5573    39.1791   131.9545    37.9037   -84.3897
    5.8863    32.7603   -79.8352    49.3903   130.9473    34.2839   -81.6904
    5.9197    31.1293   -76.4539    56.9717   124.1212    30.4449   -78.7361
    5.9532    29.1405   -73.7786    56.8484   115.7327    27.1012   -74.5282
    5.9866    26.9120   -70.3008    51.2153   112.7550    25.1967   -69.4226
    6.0201    25.6866   -65.7762    46.0348   116.0193    25.0498   -64.1056
    6.0535    26.2244   -60.9224    44.0887   122.7015    26.8099   -59.2073
    6.0870    28.8456   -56.6937    45.7533   130.3421    30.5914   -55.6840
    6.1204    33.4535   -54.5250    50.5638   136.9254    35.7408   -55.1781
    6.1538    38.4115   -56.2318    56.6637   140.6179    39.4236   -58.7841
    6.1873    39.9221   -61.3795    60.4736   142.0365    38.3191   -63.7321
    6.2207    36.4925   -65.4226    60.9903   145.5066    33.8484   -65.5365
    6.2542    31.5708   -65.4340    61.6933   153.5500    29.8814   -63.7340
    6.2876    28.2776   -62.6046    65.6073   165.1367    28.2375   -60.3227
    6.3211    27.4618   -58.9868    74.1460   178.8300    29.0555   -57.2695
    6.3545    28.8590   -56.3226    88.8522   193.2999    31.3757   -56.3476
    6.3880    31.0906   -56.1210   111.8197   205.8280    32.6422   -58.2251
    6.4214    31.4420   -58.1654   144.0452   210.3907    30.6654   -60.4653
    6.4548    28.8387   -59.4528   179.7743   197.8836    26.9337   -60.1527
    6.4883    25.5056   -58.0507   201.7878   167.5693    23.9918   -57.3642
    6.5217    23.4628   -54.6965   199.7537   139.6393    22.8317   -53.4031
    6.5552    23.3045   -50.6246   189.2221   131.7655    23.5889   -49.2934
    6.5886    25.0868   -46.8157   189.7727   138.8557    26.1926   -45.9610
    6.6221    28.5304   -44.3452   208.1770   145.2775    30.0011   -44.5482
    6.6555    32.3338   -44.1491   237.5667   134.7118    33.0967   -45.4313
    6.6890    34.5661   -45.2715   256.1573   102.7578    34.0733   -46.4937
    6.7224    35.7863   -45.2639   249.3692    71.8708    34.7992   -45.6282
    6.7559    38.7466   -44.1582   234.8135    62.7503    37.9648   -43.8627
    6.7893    44.7251   -44.8878   234.8325    67.7722    44.3431   -44.2882
    6.8227    51.3761   -51.0707   254.4032    67.3523    51.4296   -50.4193
    6.8562    52.6059   -62.3516   282.2056    44.9231    53.0358   -61.9217
    6.8896    45.9805   -71.7481   295.1426    -1.8152    46.5160   -71.7072
    6.9231    36.7083   -74.8031   276.3885   -51.5201    37.0978   -75.0533
    6.9565    29.3329   -73.2927   237.4925   -79.2491    29.5018   -73.6715
    6.9900    24.8606   -69.9559   201.0491   -84.1170    24.8072   -70.3537
    7.0234    22.9785   -66.4717   175.6252   -78.7163    22.7033   -66.7925
    7.0569    23.1617   -64.0289   159.2503   -71.6886    22.6979   -64.1280
    7.0903    24.3046   -63.7917   147.2542   -66.9144    23.8522   -63.5099
    7.1237    24.1514   -65.8469   135.0137   -62.6397    24.0704   -65.3079
    7.1572    21.3299   -67.8711   123.9764   -55.7184    21.6425   -67.5059
    7.1906    17.3535   -67.8955   115.8851   -48.3340    17.7377   -67.8504
    7.2241    13.9452   -66.2894   107.9248   -41.2112    14.2194   -66.4389
    7.2575    11.5308   -63.9988   100.0200   -30.8946    11.6716   -64.2282
   7.29097    9.95743  -61.56300   95.97508  -16.73086    9.97779  -61.81635
   7.32441    9.02641  -59.19835   98.26762   -1.35205    8.92866  -59.44518
    7.3579     8.6218   -56.9983   107.5639    11.7762     8.3896   -57.1991
    7.3913     8.6976   -55.0654   122.3904    18.1372     8.3131   -55.1314
    7.4247     9.1778   -53.6012   136.4846    14.8099     8.7066   -53.3563
    7.4582     9.7343   -52.8332   143.4415     6.7492     9.5169   -52.1346
  7.492      9.807     -52.55      145.6     -.7821E-1   10.35     -51.78   
    7.5251     9.3891   -52.0497   144.7918    -6.8658    10.4580   -52.0625
    7.5585     9.1072   -51.1376   138.1180   -10.9585     9.7555   -52.0454
    7.5920     9.3418   -50.2676   129.6274    -6.4005     9.0221   -51.3640
    7.6254     9.8796   -50.0403   126.3285     5.4905     8.7864   -50.4624
    7.6589     9.9190   -50.5921   130.8057    20.5729     8.9671   -49.9441
    7.6923     8.9435   -51.0955   144.2137    35.7765     8.9454   -50.0742
    7.7258     7.5234   -50.8183   167.8273    46.9304     8.1666   -50.3094
    7.7592     6.3216   -49.9039   200.6481    47.3650     6.9587   -49.9709
    7.7926     5.5145   -48.7186   235.0855    30.2219     5.8924   -49.0838
    7.8261     5.0619   -47.4810   258.3387    -1.6905     5.1568   -47.9443
    7.8595     4.9079   -46.3046   267.3937   -37.0888     4.7288   -46.7427
    7.8930     5.0088   -45.2926   266.1174   -71.4961     4.5636   -45.5665
    7.9264     5.2556   -44.5784   255.6697  -102.9096     4.6472   -44.4765
    7.9599     5.3838   -44.1875   236.9553  -128.4795     4.9800   -43.5740
    7.9933     5.2145   -43.8363   213.9325  -143.3713     5.4802   -43.0418
    8.0268     4.9616   -43.2672   195.5136  -149.7623     5.8194   -43.0014
    8.0602     4.8956   -42.5823   181.2547  -156.4570     5.6141   -43.1340
    8.0936     5.0431   -42.0463   164.2771  -162.2491     5.0217   -42.9247
    8.1271     5.1552   -41.8314   148.0032  -161.1679     4.4771   -42.3149
    8.1605     4.9217   -41.7387   139.1541  -157.3585     4.1811   -41.5198
    8.1940     4.4373   -41.3942   135.3163  -158.7444     4.1513   -40.7364
    8.2274     4.0182   -40.7515   128.4824  -165.5038     4.3173   -40.1326
    8.2609     3.8164   -39.9693   117.0302  -171.3160     4.4729   -39.8100
    8.2943     3.8567   -39.1956   104.3539  -175.0815     4.3769   -39.6068
    8.3278     4.1145   -38.5726    89.5456  -177.4516     4.1050   -39.2239
    8.3612     4.4551   -38.2537    73.1125  -175.3607     3.9260   -38.6292
    8.3946     4.5839   -38.2194    58.9037  -168.5785     3.9811   -37.9905
    8.4281     4.3825   -38.1338    48.5829  -159.8504     4.2613   -37.5177
    8.4615     4.1234   -37.7912    41.4329  -151.3309     4.5725   -37.3955
    8.4950     4.0451   -37.3447    36.0945  -143.7121     4.5634   -37.5352
    8.5284     4.1186   -37.0454    31.7426  -136.6831     4.1789   -37.5284
    8.5619     4.0833   -36.9794    28.3049  -129.8844     3.7446   -37.2084
    8.5953     3.7545   -36.9015    25.9706  -123.3449     3.4670   -36.7451
    8.6288     3.3031   -36.5768    24.8077  -117.3866     3.3041   -36.3250
    8.6622     2.9412   -36.0557    24.6358  -112.4660     3.1034   -35.9650
    8.6957     2.7149   -35.4708    24.8439  -108.9970     2.8297   -35.5350
    8.7291     2.5745   -34.8935    24.4533  -106.7407     2.5830   -34.9834
    8.7625     2.4695   -34.3135    23.1150  -104.6918     2.4260   -34.3562
    8.7960     2.4072   -33.6966    21.3476  -102.1295     2.3647   -33.6960
   8.82943    2.41838  -33.04142   19.89759  -98.97646    2.39430  -33.01993
   8.86288    2.52348  -32.35965   19.26441  -95.74287    2.51913  -32.33220
   8.89632    2.74478  -31.65990   19.31792  -93.12525    2.75924  -31.63656
   8.92977    3.12146  -30.95665   19.39402  -91.37260    3.15170  -30.94994
   8.96321    3.71584  -30.29435   19.07310  -90.05745    3.74469  -30.32012
   8.99666    4.59560  -29.79235   18.48477  -88.91767    4.58062  -29.84029
   9.03010    5.73959  -29.68371   17.55462  -87.94621    5.67711  -29.67821
   9.06355    6.88295  -30.19323   16.16702  -86.83733    6.88811  -30.12365
   9.09699    7.62973  -31.27125   14.60356  -85.26035    7.69169  -31.28526
   9.13043    7.68215  -32.65533   13.23872  -83.27684    7.66317  -32.69522
   9.16388    6.91489  -33.84688   12.23424  -81.05687    6.89609  -33.83367
   9.19732    5.69008  -34.38177   11.72600  -78.79868    5.69537  -34.37389
   9.23077    4.51550  -34.26965   11.70435  -76.82928    4.51891  -34.27073
   9.26421    3.63430  -33.78350   11.90006  -75.39737    3.63459  -33.78489
   9.29766    3.05259  -33.15402   11.96499  -74.51607    3.05218  -33.15451
   9.33110    2.70595  -32.49520   11.54762  -73.99950    2.70561  -32.49521
   9.36455    2.54374  -31.85141   10.53095  -73.32071    2.54359  -31.85126
   9.39799    2.54651  -31.24481    9.33437  -72.13625    2.54654  -31.24466
   9.43144    2.72250  -30.71004    8.32650  -70.57411    2.72262  -30.71001
   9.46488    3.08496  -30.33270    7.62667  -68.85007    3.08501  -30.33278
   9.49833    3.56725  -30.27588    7.22055  -67.15134    3.56719  -30.27591
   9.53177    3.87989  -30.64792    6.98364  -65.58392    3.87988  -30.64788
   9.56522    3.68700  -31.17004    6.79282  -64.08463    3.68702  -31.17004
   9.59866    3.12009  -31.40205    6.70299  -62.53666    3.12009  -31.40206
   9.63211    2.52865  -31.29450    6.86121  -60.96643    2.52865  -31.29450
   9.66555    2.05493  -31.00049    7.36258  -59.52517    2.05493  -31.00049
   9.69900    1.70649  -30.63106    8.19661  -58.45622    1.70649  -30.63106
   9.73244    1.45764  -30.24532    9.12655  -58.03384    1.45764  -30.24532
   9.76589    1.27895  -29.87002    9.62667  -58.29387    1.27895  -29.87002
   9.79933    1.14743  -29.51411    9.23751  -58.68795    1.14743  -29.51411
   9.83278    1.04764  -29.17884    8.26522  -58.46859    1.04764  -29.17884
   9.86622    0.96965  -28.86277    7.40992  -57.57468    0.96965  -28.86277
   9.89966    0.90702  -28.56374    7.00067  -56.38182    0.90702  -28.56374
   9.93311    0.85554  -28.27964    7.04224  -55.23800    0.85554  -28.27964
   9.96655    0.81235  -28.00862    7.37078  -54.36967    0.81235  -28.00862
  10.00000    0.77548  -27.74911    7.78420  -53.79921    0.77548  -27.74911
# 
# YAMBO@anomaly.roma2.infn.it x 001 CPUs * 08/29/2008  10:23 [start]
#                                          08/29/2008  10:23 [end]
# 
# Cpu Timing [Min/Max/Average]: 05s/05s/05s
#
# .-Input file : Inputs/06_BSE
# | optics                       # [R OPT] Optics
# | bse                          # [R BSK] Bethe Salpeter Equation.
# | bss                          # [R BSS] Bethe Salpeter Equation solver
# | FFTGvecs=  997           RL  # [FFT] Plane-waves
# | % KfnQP_E
# |  2.300000 | 1.000000 | 1.000000 |      # [EXTQP BSK BSS] E parameters (c/v)
# | %
# | BSresKmod= "xdc"             # [BSK] Resonant Kernel mode. (`x`;`c`;`d`)
# | % BSEBands
# |   20 |  50 |                 # [BSK] Bands range
# | %
# | BSENGBlk= 107            RL  # [BSK] Screened interaction block size
# | BSENGexx= 107            RL  # [BSK] Exchange components
# | BSSmod= "h"                  # [BSS] Solvers `h/d/i/t`
# | % BEnRange
# |   0.00000 | 10.00000 |   eV  # [BSS] Energy range
# | %
# | % BDmRange
# |   0.10000 |  0.10000 |   eV  # [BSS] Damping range
# | %
# | BEnSteps= 300                # [BSS] Energy steps
# | % BLongDir
# | 0.1000E-4 | 0.000    | 0.000    |      # [BSS] [cc] Electric Field
# | %
